 WAVEWATCH III 19680606 000005 -0.100E+00  0.299E+02 301 -0.100E+00  0.100E+00   3 .dpt  0.0100 m          1 1 (1X,17I7)  -999
        -999        -999        -999        -999        -999        -999
        -999        -999        -999        -999        -999        -999
        -999        -999        -999        -999        -999        -999
        -999        -999        -999        -999        -999        -999
        -999        -999        -999        -999        -999        -999
        -999        -999        -999        -999        -999        -999
        -999        -999        -999        -999        -999        -999
        -999        -999        -999        -999        -999        -999
        -999        -999        -999        -999        -999        -999
        -999        -999        -999        -999        -999        -999
        -999        -999        -999        -999        -999        -999
        -999        -999        -999        -999        -999        -999
        -999        -999        -999        -999        -999        -999
        -999        -999        -999        -999        -999        -999
        -999        -999        -999        -999        -999        -999
        -999        -999        -999        -999        -999        -999
        -999        -999        -999        -999        -999        -999
        -999        -999        -999        -999        -999        -999
        -999        -999        -999        -999        -999        -999
        -999        -999        -999        -999        -999        -999
        -999        -999        -999        -999        -999        -999
        -999        -999        -999        -999        -999        -999
        -999        -999        -999        -999        -999        -999
        -999        -999        -999        -999        -999        -999
        -999        -999        -999        -999        -999        -999
        -999        -999        -999        -999        -999        -999
        -999        -999        -999        -999        -999        -999
        -999        -999        -999        -999        -999        -999
        -999        -999        -999        -999        -999        -999
        -999        -999        -999        -999        -999        -999
        -999        -999        -999        -999        -999        -999
        -999        -999        -999        -999        -999        -999
        -999        -999        -999        -999        -999        -999
        -999        -999        -999        -999        -999        -999
        -999        -999        -999        -999        -999        -999
        -999        -999        -999        -999        -999        -999
        -999        -999        -999        -999        -999        -999
        -999        -999        -999        -999        -999        -999
        -999        -999        -999        -999        -999        -999
        -999        -999        -999        -999        -999        -999
        -999        -999        -999        -999        -999        -999
        -999        -999        -999        -999        -999        -999
        -999        -999        -999        -999        -999        -999
        -999        -999        -999        -999        -999        -999
        -999        -999        -999        -999        -999        -999
        -999        -999        -999        -999        -999        -999
        -999        -999        -999        -999        -999        -999
        -999        -999        -999        -999        -999        -999
        -999        -999        -999        -999        -999        -999
        -999        -999        -999        -999        -999        -999
        -999
        -999          46          46          46          46          46
          46          45          45          45          45          45
          45          45          45          45          45          44
          44          44          44          44          44          44
          44          44          44          43          43          43
          43          43          43          43          43          43
          43          42          42          42          42          42
          42          42          42          42          42          41
          41          41          41          41          41          41
          41          41          41          40          40          40
          40          40          40          39          39          38
          38          37          37          36          36          35
          35          34          34          33          33          32
          32          31          31          30          30          29
          29          28          28          27          27          26
          26          25          25          24          24          23
          23          22          22          21          21          20
          20          19          19          18          18          17
          17          16          16          15          15          14
          14          13          13          12          12          11
          11          10          10          10          10          10
          10          10          10          10          10          10
          10          10          10          10          10          10
          10          10          10          10          11          12
          13          14          15          16          17          18
          19          20          21          22          23          24
          25          26          27          28          29          30
          31          32          33          34          35          36
          37          38          39          40          40          40
          40          40          40          40          40          40
          40          40          40          40          40          40
          40          40          40          40          40          40
          40          39          39          38          38          38
          37          37          36          36          36          35
          35          34          34          34          33          33
          32          32          32          31          31          30
          30          30          29          29          28          28
          28          27          27          26          26          26
          25          25          24          24          24          23
          23          22          22          22          21          21
          20          20          20          19          19          18
          18          18          17          17          16          16
          16          15          15          14          14          14
          13          13          12          12          12          11
          11          10          10          10           9           9
           8        -999        -999        -999        -999        -999
        -999        -999        -999        -999        -999        -999
        -999        -999        -999        -999        -999        -999
        -999        -999        -999        -999        -999        -999
        -999        -999        -999        -999        -999        -999
        -999
        -999        -999        -999        -999        -999        -999
        -999        -999        -999        -999        -999        -999
        -999        -999        -999        -999        -999        -999
        -999        -999        -999        -999        -999        -999
        -999        -999        -999        -999        -999        -999
        -999        -999        -999        -999        -999        -999
        -999        -999        -999        -999        -999        -999
        -999        -999        -999        -999        -999        -999
        -999        -999        -999        -999        -999        -999
        -999        -999        -999        -999        -999        -999
        -999        -999        -999        -999        -999        -999
        -999        -999        -999        -999        -999        -999
        -999        -999        -999        -999        -999        -999
        -999        -999        -999        -999        -999        -999
        -999        -999        -999        -999        -999        -999
        -999        -999        -999        -999        -999        -999
        -999        -999        -999        -999        -999        -999
        -999        -999        -999        -999        -999        -999
        -999        -999        -999        -999        -999        -999
        -999        -999        -999        -999        -999        -999
        -999        -999        -999        -999        -999        -999
        -999        -999        -999        -999        -999        -999
        -999        -999        -999        -999        -999        -999
        -999        -999        -999        -999        -999        -999
        -999        -999        -999        -999        -999        -999
        -999        -999        -999        -999        -999        -999
        -999        -999        -999        -999        -999        -999
        -999        -999        -999        -999        -999        -999
        -999        -999        -999        -999        -999        -999
        -999        -999        -999        -999        -999        -999
        -999        -999        -999        -999        -999        -999
        -999        -999        -999        -999        -999        -999
        -999        -999        -999        -999        -999        -999
        -999        -999        -999        -999        -999        -999
        -999        -999        -999        -999        -999        -999
        -999        -999        -999        -999        -999        -999
        -999        -999        -999        -999        -999        -999
        -999        -999        -999        -999        -999        -999
        -999        -999        -999        -999        -999        -999
        -999        -999        -999        -999        -999        -999
        -999        -999        -999        -999        -999        -999
        -999        -999        -999        -999        -999        -999
        -999        -999        -999        -999        -999        -999
        -999        -999        -999        -999        -999        -999
        -999        -999        -999        -999        -999        -999
        -999        -999        -999        -999        -999        -999
        -999        -999        -999        -999        -999        -999
        -999        -999        -999        -999        -999        -999
        -999        -999        -999        -999        -999        -999
        -999        -999        -999        -999        -999        -999
        -999
